time,x-position,velocity,momentum,kinetic energy,potential energy
0,1,1.75,1.75,1.53125,2
0.1,1.15484,1.33958,1.33958,0.897234,2.66731
0.2,1.26672,0.893214,0.893214,0.398915,3.20914
0.3,1.3328,0.426324,0.426324,0.0908762,3.55271
0.4,1.35182,-0.0453283,-0.0453283,0.00102733,3.65485
0.5,1.3241,-0.506128,-0.506128,0.128083,3.50646
0.6,1.25146,-0.941088,-0.941088,0.442823,3.1323
0.7,1.1372,-1.33631,-1.33631,0.892857,2.58647
0.8,0.985939,-1.67938,-1.67938,1.41016,1.94415
0.9,0.803419,-1.95979,-1.95979,1.9204,1.29097
1,0.59635,-2.16919,-2.16919,2.35268,0.711266
1.1,0.37215,-2.30163,-2.30163,2.64875,0.276991
1.2,0.138704,-2.35377,-2.35377,2.77011,0.0384776
1.3,-0.0959007,-2.32491,-2.32491,2.7026,0.0183939
1.4,-0.323641,-2.21703,-2.21703,2.45761,0.209487
1.5,-0.536821,-2.03467,-2.03467,2.06994,0.576354
1.6,-0.728323,-1.78481,-1.78481,1.59277,1.06091
1.7,-0.891835,-1.47657,-1.47657,1.09013,1.59074
1.8,-1.02206,-1.12099,-1.12099,0.628307,2.0892
1.9,-1.11487,-0.730563,-0.730563,0.266861,2.48587
2,-1.16746,-0.3189,-0.3189,0.0508486,2.72593
2.1,-1.17842,0.0997627,0.0997627,0.0049763,2.77733
2.2,-1.14776,0.511025,0.511025,0.130573,2.63469
2.3,-1.07693,0.900804,0.900804,0.405724,2.31955
2.4,-0.968756,1.2558,1.2558,0.788519,1.87697
2.5,-0.827331,1.56395,1.56395,1.22298,1.36895
2.6,-0.657876,1.81484,1.81484,1.64682,0.865601
2.7,-0.466556,2.00003,2.00003,2.00006,0.435348
2.8,-0.260267,2.11338,2.11338,2.23318,0.135478
2.9,-0.0463996,2.15123,2.15123,2.3139,0.00430584
3,0.167426,2.11258,2.11258,2.2315,0.0560629
3.1,0.373618,1.99906,1.99906,1.99812,0.279181
3.2,0.564882,1.81493,1.81493,1.64699,0.638183
3.3,0.734473,1.56694,1.56694,1.22764,1.0789
3.4,0.876437,1.26405,1.26405,0.798908,1.53628
3.5,0.985815,0.917188,0.917188,0.420617,1.94366
3.6,1.05882,0.538834,0.538834,0.145171,2.24221
3.7,1.09299,0.14259,0.14259,0.010166,2.38923
3.8,1.08722,-0.257296,-0.257296,0.0331006,2.36409
3.9,1.04188,-0.646435,-0.646435,0.208939,2.17105
4,0.958759,-1.01081,-1.01081,0.510868,1.83844
4.1,0.840988,-1.33728,-1.33728,0.894153,1.41452
4.2,0.692963,-1.61404,-1.61404,1.30257,0.960395
4.3,0.520172,-1.8311,-1.8311,1.67646,0.541158
4.4,0.328998,-1.98058,-1.98058,1.96136,0.21648
4.5,0.126491,-2.05708,-2.05708,2.1158,0.0319999
4.6,-0.0798903,-2.05783,-2.05783,2.11733,0.0127649
4.7,-0.282547,-1.98282,-1.98282,1.96579,0.159665
4.8,-0.474019,-1.83483,-1.83483,1.6833,0.449387
4.9,-0.647259,-1.61931,-1.61931,1.31108,0.837888
5,-0.795893,-1.34422,-1.34422,0.90346,1.26689
5.1,-0.914453,-1.01971,-1.01971,0.519907,1.67245
5.2,-0.998587,-0.657806,-0.657806,0.216355,1.99435
5.3,-1.04521,-0.27192,-0.27192,0.0369702,2.18495
5.4,-1.05265,0.123609,0.123609,0.0076396,2.21614
5.5,-1.02066,0.514053,0.514053,0.132125,2.0835
5.6,-0.950494,0.884843,0.884843,0.391474,1.80688
5.7,-0.844812,1.22211,1.22211,0.74678,1.42741
5.8,-0.707612,1.51322,1.51322,1.14492,1.00143
5.9,-0.544074,1.74722,1.74722,1.52639,0.592033
6,-0.360369,1.91529,1.91529,1.83417,0.259731
6.1,-0.163428,2.01107,2.01107,2.02221,0.0534177
6.2,0.0393111,2.03091,2.03091,2.06229,0.00309072
6.3,0.240191,1.97399,1.97399,1.94832,0.115383
6.4,0.431617,1.84242,1.84242,1.69725,0.372587
6.5,0.606347,1.64112,1.64112,1.34663,0.735314
6.6,0.757766,1.37766,1.37766,0.948973,1.14842
6.7,0.880137,1.06199,1.06199,0.563914,1.54928
6.8,0.968821,0.706064,0.706064,0.249264,1.87723
6.9,1.02046,0.323382,0.323382,0.0522878,2.08266
7,1.03309,-0.0715056,-0.0715056,0.00255653,2.13455
7.1,1.00625,-0.463552,-0.463552,0.10744,2.02508
7.2,0.940974,-0.837791,-0.837791,0.350947,1.77086
7.3,0.839764,-1.17991,-1.17991,0.696092,1.41041
7.4,0.706502,-1.47679,-1.47679,1.09045,0.99829
7.5,0.546297,-1.71703,-1.71703,1.4741,0.59688
7.6,0.365295,-1.89137,-1.89137,1.78865,0.266881
7.7,0.170446,-1.99308,-1.99308,1.98618,0.0581038
7.8,-0.0307637,-2.01818,-2.01818,2.03652,0.00189281
7.9,-0.230598,-1.96564,-1.96564,1.93187,0.106351
8,-0.421366,-1.83743,-1.83743,1.68808,0.355099
8.1,-0.595722,-1.63843,-1.63843,1.34223,0.709769
8.2,-0.746945,-1.37626,-1.37626,0.947043,1.11585
8.3,-0.869201,-1.06097,-1.06097,0.562831,1.51102
8.4,-0.957771,-0.704711,-0.704711,0.248309,1.83465
8.5,-1.00923,-0.321215,-0.321215,0.0515895,2.03711
8.6,-1.0216,0.0747039,0.0747039,0.00279034,2.08733
8.7,-0.99439,0.467728,0.467728,0.109385,1.97762
8.8,-0.928659,0.84263,0.84263,0.355013,1.72481
8.9,-0.826954,1.18486,1.18486,0.70195,1.36771
9,-0.69322,1.48113,1.48113,1.09687,0.961109
9.1,-0.532648,1.71989,1.71989,1.47901,0.567428
9.2,-0.351473,1.89183,1.89183,1.78951,0.247066
9.3,-0.156736,1.99023,1.99023,1.98051,0.0491325
9.4,0.0439889,2.01121,2.01121,2.02247,0.00387004
9.5,0.242892,1.95389,1.95389,1.90885,0.117993
9.6,0.432227,1.82048,1.82048,1.65707,0.373641
9.7,0.604619,1.6161,1.6161,1.3059,0.731127
9.8,0.753345,1.34871,1.34871,0.909504,1.13506
9.9,0.872603,1.02867,1.02867,0.529086,1.52287
10,0.957739,0.668473,0.668473,0.223428,1.83453
10.1,1.00543,0.282145,0.282145,0.039803,2.02176
10.2,1.0138,-0.115226,-0.115226,0.00663846,2.05558
10.3,0.98253,-0.508111,-0.508111,0.129088,1.93073
10.4,0.91284,-0.881139,-0.881139,0.388203,1.66655
10.5,0.807453,-1.2197,-1.2197,0.743838,1.30396
10.6,0.670492,-1.51053,-1.51053,1.14085,0.89912
10.7,0.507321,-1.7422,-1.7422,1.51763,0.514749
10.8,0.32433,-1.90561,-1.90561,1.81568,0.21038
10.9,0.128691,-1.99433,-1.99433,1.98867,0.033123
11,-0.0719246,-2.00483,-2.00483,2.00966,0.0103463
11.1,-0.269648,-1.93667,-1.93667,1.87534,0.145421
11.2,-0.45672,-1.79248,-1.79248,1.6065,0.417187
11.3,-0.625796,-1.57791,-1.57791,1.2449,0.783241
11.4,-0.770234,-1.30135,-1.30135,0.846756,1.18652
11.5,-0.884359,-0.973639,-0.973639,0.473986,1.56418
11.6,-0.963684,-0.607642,-0.607642,0.184614,1.85737
11.7,-1.00509,-0.217737,-0.217737,0.0237046,2.02041
11.8,-1.00694,0.180747,0.180747,0.0163347,2.02787
11.9,-0.969176,0.572131,0.572131,0.163667,1.87861
12,-0.89327,0.941007,0.941007,0.442747,1.59586
12.1,-0.782211,1.27284,1.27284,0.810064,1.22371
12.2,-0.640374,1.55455,1.55455,1.20832,0.820158
12.3,-0.473345,1.77502,1.77502,1.57536,0.44811
12.4,-0.287704,1.92555,1.92555,1.85387,0.165547
12.5,-0.0907687,2.00016,2.00016,2.00033,0.0164779
12.6,0.109697,1.99591,1.99591,1.99183,0.0240667
12.7,0.305786,1.91293,1.91293,1.82966,0.18701
12.8,0.489764,1.75448,1.75448,1.5391,0.479738
12.9,0.654371,1.52679,1.52679,1.16554,0.856404
13,0.79311,1.23882,1.23882,0.767343,1.25805
13.1,0.900504,0.901943,0.901943,0.406751,1.62181
13.2,0.97231,0.529437,0.529437,0.140152,1.89077
13.3,1.00569,0.136012,0.136012,0.00924967,2.02284
13.4,0.999333,-0.26279,-0.26279,0.0345293,1.99733
13.5,0.953481,-0.65121,-0.65121,0.212037,1.81825
13.6,0.86995,-1.01389,-1.01389,0.513988,1.51363
13.7,0.752041,-1.33649,-1.33649,0.893103,1.13113
13.8,0.604416,-1.60624,-1.60624,1.29,0.730637
13.9,0.432914,-1.81246,-1.81246,1.6425,0.374828
14,0.244318,-1.94697,-1.94697,1.89535,0.119382
14.1,0.0460902,-2.00445,-2.00445,2.00892,0.00424862
14.2,-0.153925,-1.98261,-1.98261,1.96536,0.0473859
14.3,-0.347812,-1.88228,-1.88228,1.7715,0.241946
14.4,-0.527894,-1.70744,-1.70744,1.45768,0.557345
14.5,-0.687044,-1.46499,-1.46499,1.0731,0.944058
14.6,-0.818957,-1.16453,-1.16453,0.678063,1.34138
14.7,-0.91841,-0.817939,-0.817939,0.334512,1.68695
14.8,-0.981463,-0.438949,-0.438949,0.0963383,1.92654
14.9,-1.00562,-0.0425707,-0.0425707,0.000906134,2.02254
15,-0.989921,0.355491,0.355491,0.063187,1.95989
15.1,-0.934991,0.739459,0.739459,0.2734,1.74842
15.2,-0.843008,1.09411,1.09411,0.59854,1.42132
15.3,-0.717617,1.40538,1.40538,0.987552,1.02995
15.4,-0.563791,1.66093,1.66093,1.37934,0.635721
15.5,-0.38763,1.8506,1.8506,1.71236,0.300514
15.6,-0.19612,1.96688,1.96688,1.93431,0.0769264
15.7,0.00314155,2.00513,2.00513,2.01028,1.97387e-05
15.8,0.202251,1.96384,1.96384,1.92834,0.0818112
15.9,0.39331,1.84464,1.84464,1.70134,0.309385
16,0.568736,1.65224,1.65224,1.36494,0.646921
16.1,0.721568,1.39427,1.39427,0.971994,1.04132
16.2,0.845743,1.08097,1.08097,0.584249,1.43056
16.3,0.936331,0.724769,0.724769,0.262645,1.75343
16.4,0.989737,0.339803,0.339803,0.0577329,1.95916
16.5,1.00384,-0.0586472,-0.0586472,0.00171975,2.01539
16.6,0.978085,-0.45476,-0.45476,0.103404,1.9133
16.7,0.913492,-0.832807,-0.832807,0.346784,1.66894
16.8,0.812628,-1.17777,-1.17777,0.693572,1.32073
16.9,0.679499,-1.47595,-1.47595,1.08921,0.923439
17,0.519395,-1.71549,-1.71549,1.47146,0.539542
17.1,0.338675,-1.88689,-1.88689,1.78017,0.229402
17.2,0.14452,-1.98331,-1.98331,1.96676,0.0417721
17.3,-0.0553565,-2.00093,-2.00093,2.00186,0.00612867
17.4,-0.253012,-1.93905,-1.93905,1.87995,0.128031
17.5,-0.440594,-1.80011,-1.80011,1.62019,0.388246
17.6,-0.610646,-1.58963,-1.58963,1.26346,0.745777
17.7,-0.756411,-1.31598,-1.31598,0.865902,1.14432
17.8,-0.872096,-0.990029,-0.990029,0.490079,1.5211
17.9,-0.953104,-0.624732,-0.624732,0.195145,1.81681
18,-0.996214,-0.234608,-0.234608,0.0275204,1.98488
18.1,-0.999714,0.164834,0.164834,0.0135851,1.99886
18.2,-0.963466,0.557712,0.557712,0.155521,1.85653
18.3,-0.888912,0.928405,0.928405,0.430968,1.58033
18.4,-0.779018,1.26217,1.26217,0.796539,1.21374
18.5,-0.638153,1.54574,1.54574,1.19465,0.814479
18.6,-0.471922,1.76782,1.76782,1.5626,0.445421
18.7,-0.286935,1.9196,1.9196,1.84242,0.164664
18.8,-0.0905513,1.99501,1.99501,1.99004,0.0163991
18.9,0.109419,1.99108,1.99108,1.98219,0.0239449
19,0.30502,1.90794,1.90794,1.82011,0.186075
19.1,0.488473,1.7489,1.7489,1.52932,0.477211
19.2,0.652478,1.52029,1.52029,1.15564,0.851455
19.3,0.790512,1.2312,1.2312,0.757928,1.24982
19.4,0.897083,0.893134,0.893134,0.398844,1.60952
19.5,0.967953,0.519539,0.519539,0.13496,1.87386
19.6,1.0003,0.12528,0.12528,0.00784751,2.00121
19.7,0.992843,-0.273955,-0.273955,0.0375257,1.97147
19.8,0.945874,-0.662278,-0.662278,0.219306,1.78936
19.9,0.861267,-1.02424,-1.02424,0.52453,1.48356
20,0.742388,-1.34542,-1.34542,0.905081,1.10228
20.1,0.59397,-1.61305,-1.61305,1.30097,0.705601
20.2,0.42192,-1.81648,-1.81648,1.6498,0.356034
20.3,0.233088,-1.9476,-1.9476,1.89656,0.10866
20.4,0.0349888,-2.00119,-2.00119,2.00237,0.00244844
20.5,-0.164491,-1.97512,-1.97512,1.95055,0.0541144
20.6,-0.35741,-1.87042,-1.87042,1.74924,0.255484
20.7,-0.53609,-1.69127,-1.69127,1.4302,0.574786
20.8,-0.693418,-1.4448,-1.4448,1.04372,0.961657
20.9,-0.82313,-1.14081,-1.14081,0.650719,1.35509
21,-0.920063,-0.791402,-0.791402,0.313159,1.69303
21.1,-0.980359,-0.410497,-0.410497,0.0842538,1.92221
21.2,-1.00162,-0.0132558,-0.0132558,8.78578e-05,2.00648
21.3,-0.982993,0.384504,0.384504,0.0739218,1.93255
21.4,-0.925228,0.766946,0.766946,0.294103,1.71209
21.5,-0.830623,1.11884,1.11884,0.625901,1.37987
21.6,-0.702947,1.42617,1.42617,1.01698,0.98827
21.7,-0.547285,1.67671,1.67671,1.40567,0.599041
21.8,-0.369835,1.86046,1.86046,1.73066,0.273556
21.9,-0.177665,1.97013,1.97013,1.9407,0.0631297
22,0.0215716,2.00133,2.00133,2.00265,0.00093067
22.1,0.21994,1.95282,1.95282,1.90676,0.0967472
22.2,0.40954,1.82654,1.82654,1.66813,0.335446
22.3,0.58282,1.62752,1.62752,1.32441,0.679359
22.4,0.73288,1.36367,1.36367,0.929802,1.07423
22.5,0.853742,1.04552,1.04552,0.546556,1.45775
22.6,0.940594,0.685728,0.685728,0.235112,1.76943
22.7,0.989976,0.29863,0.29863,0.04459,1.96011
22.8,0.999923,-0.100356,-0.100356,0.00503565,1.99969
22.9,0.970039,-0.495337,-0.495337,0.122679,1.88195
23,0.901515,-0.87058,-0.87058,0.378955,1.62546
23.1,0.797081,-1.21114,-1.21114,0.733425,1.27068
23.2,0.660898,-1.50344,-1.50344,1.13016,0.873572
23.3,0.498392,-1.73585,-1.73585,1.50658,0.496789
23.4,0.316037,-1.8991,-1.8991,1.80328,0.199759
23.5,0.121098,-1.98669,-1.98669,1.97346,0.0293295
23.6,-0.0786586,-1.99513,-1.99513,1.99027,0.0123743
23.7,-0.275275,-1.92409,-1.92409,1.85106,0.151552
23.8,-0.460918,-1.77639,-1.77639,1.57778,0.42489
23.9,-0.628191,-1.55792,-1.55792,1.21356,0.789247
24,-0.77043,-1.27739,-1.27739,0.81586,1.18713
24.1,-0.88197,-0.945965,-0.945965,0.447424,1.55574
24.2,-0.958365,-0.576856,-0.576856,0.166382,1.83693
24.3,-0.996574,-0.18477,-0.18477,0.0170699,1.98632
24.4,-0.995074,0.214673,0.214673,0.0230422,1.98034
24.5,-0.953925,0.605555,0.605555,0.183349,1.81995
24.6,-0.874768,0.972304,0.972304,0.472688,1.53044
24.7,-0.760758,1.30031,1.30031,0.845397,1.1575
24.8,-0.616437,1.57649,1.57649,1.24266,0.759989
24.9,-0.447557,1.78985,1.78985,1.60179,0.400614
25,-0.260847,1.93189,1.93189,1.8661,0.136082
25.1,-0.0637479,1.99695,1.99695,1.9939,0.0081276
25.2,0.135886,1.98243,1.98243,1.96501,0.0369303
25.3,0.330101,1.88891,1.88891,1.78399,0.217933
25.4,0.511157,1.72013,1.72013,1.47942,0.522562
25.5,0.671838,1.4828,1.4828,1.09934,0.902734
25.6,0.805744,1.18638,1.18638,0.703749,1.29845
25.7,0.907537,0.84269,0.84269,0.355063,1.64725
25.8,0.973161,0.465423,0.465423,0.108309,1.89408
25.9,1,0.0696125,0.0696125,0.00242295,2.00001
26,0.986991,-0.328967,-0.328967,0.0541097,1.9483
26.1,0.934646,-0.714432,-0.714432,0.255207,1.74713
26.2,0.845055,-1.07142,-1.07142,0.573972,1.42824
26.3,0.721788,-1.38571,-1.38571,0.960092,1.04195
26.4,0.569757,-1.64476,-1.64476,1.35262,0.649246
26.5,0.395023,-1.83827,-1.83827,1.68962,0.312086
26.6,0.204548,-1.95851,-1.95851,1.91788,0.0836802
26.7,0.00592572,-2.0007,-2.0007,2.00139,7.02283e-05
26.8,-0.19293,-1.96315,-1.96315,1.92697,0.0744436
26.9,-0.384092,-1.84736,-1.84736,1.70636,0.295053
27,-0.559943,-1.65794,-1.65794,1.37438,0.627073
27.1,-0.713474,-1.40245,-1.40245,0.98343,1.01809
27.2,-0.838567,-1.09106,-1.09106,0.59521,1.40639
27.3,-0.930236,-0.736198,-0.736198,0.270993,1.73068
27.4,-0.984827,-0.351993,-0.351993,0.0619495,1.93977
27.5,-1.00017,0.0462374,0.0462374,0.00106895,2.00067
27.6,-0.975642,0.442621,0.442621,0.0979567,1.90375
27.7,-0.912231,0.821359,0.821359,0.337316,1.66433
27.8,-0.812463,1.16736,1.16736,0.681362,1.32019
27.9,-0.680313,1.46682,1.46682,1.07579,0.925651
28,-0.521049,1.70783,1.70783,1.45833,0.542984
28.1,-0.34102,1.88075,1.88075,1.76862,0.232589
28.2,-0.1474,1.97872,1.97872,1.95766,0.0434538
28.3,0.0520913,1.99781,1.99781,1.99563,0.00542701
28.4,0.249504,1.93728,1.93728,1.87652,0.124505
28.5,0.436969,1.79953,1.79953,1.61915,0.381885
28.6,0.607015,1.59005,1.59005,1.26413,0.736935
28.7,0.752864,1.31719,1.31719,0.8675,1.13361
28.8,0.868702,0.99184,0.99184,0.491873,1.50929
28.9,0.949912,0.626954,0.626954,0.196536,1.80467
29,0.993258,0.237081,0.237081,0.0281036,1.97312
29.1,0.997013,-0.16224,-0.16224,0.0131609,1.98807
29.2,0.961026,-0.555091,-0.555091,0.154063,1.84714
29.3,0.886734,-0.925813,-0.925813,0.428564,1.57259
29.4,0.777096,-1.25963,-1.25963,0.793332,1.20776
29.5,0.636484,-1.54323,-1.54323,1.19078,0.810223
29.6,0.470502,-1.76532,-1.76532,1.55818,0.442745
29.7,0.285768,-1.91704,-1.91704,1.83753,0.163327
29.8,0.0896446,-1.99235,-1.99235,1.98472,0.0160723
29.9,-0.11005,-1.98823,-1.98823,1.97653,0.0242222
30,-0.305357,-1.90487,-1.90487,1.81426,0.186485
30.1,-0.488489,-1.74557,-1.74557,1.5235,0.477243
30.2,-0.652148,-1.51669,-1.51669,1.15018,0.850593
30.3,-0.789809,-1.22736,-1.22736,0.753204,1.2476
30.4,-0.895986,-0.889101,-0.889101,0.395251,1.60558
30.5,-0.966447,-0.515405,-0.515405,0.132821,1.86804
30.6,-0.998382,-0.121167,-0.121167,0.00734068,1.99353
30.7,-0.990519,0.2779,0.2779,0.0386142,1.96226
30.8,-0.943172,0.665887,0.665887,0.221703,1.77915
30.9,-0.858228,1.02733,1.02733,0.527701,1.47311
31,-0.739073,1.34782,1.34782,0.908303,1.09246
31.1,-0.590458,1.61457,1.61457,1.30342,0.697281
31.2,-0.418307,1.81697,1.81697,1.65069,0.349961
31.3,-0.229482,1.94693,1.94693,1.89528,0.105324
31.4,-0.0315103,1.99929,1.99929,1.99858,0.0019858
